Time,Altitude,Velocity,Acceleration
0.000000,0.000000,0.000000,0.000000
0.010000,0.026312,0.802000,8.183673
0.020000,0.078937,1.603997,8.183641
0.030000,0.157873,2.405984,8.183542
0.040000,0.263121,3.207955,8.183378
0.050000,0.394680,4.009903,8.183148
0.060000,0.552548,4.811823,8.182852
0.070000,0.736725,5.613707,8.182491
0.080000,0.947209,6.415549,8.182064
0.090000,1.183998,7.217343,8.181572
0.100000,1.447091,8.019083,8.181014
0.110000,1.736486,8.820761,8.180390
0.120000,2.052181,9.622372,8.179701
0.130000,2.394173,10.423909,8.178946
0.140000,2.762459,11.225365,8.178126
0.150000,3.157037,12.026734,8.177240
0.160000,3.577904,12.828011,8.176289
0.170000,4.025055,13.629187,8.175272
0.180000,4.498489,14.430258,8.174190
0.190000,4.998201,15.231216,8.173043
0.200000,5.524187,16.032055,8.171830
0.210000,6.076443,16.832770,8.170552
0.220000,6.654965,17.633352,8.169209
0.230000,7.259749,18.433796,8.167800
0.240000,7.890789,19.234097,8.166327
0.250000,8.548080,20.034246,8.164788
0.260000,9.231618,20.834238,8.163185
0.270000,9.941397,21.634067,8.161517
0.280000,10.677412,22.433725,8.159783
0.290000,11.439656,23.233208,8.157985
0.300000,12.228124,24.032508,8.156122
0.310000,13.042810,24.831619,8.154194
0.320000,13.883707,25.630535,8.152202
0.330000,14.750808,26.429249,8.150146
0.340000,15.644107,27.227755,8.148024
0.350000,16.563597,28.026047,8.145839
0.360000,17.509270,28.824119,8.143589
0.370000,18.481120,29.621964,8.141275
0.380000,19.479137,30.419576,8.138896
0.390000,20.503315,31.216948,8.136454
0.400000,21.553646,32.014075,8.133947
0.410000,22.630121,32.810950,8.131377
0.420000,23.732731,33.607567,8.128743
0.430000,24.861469,34.403920,8.126046
0.440000,26.016324,35.200001,8.123284
0.450000,27.197289,35.995806,8.120459
0.460000,28.404354,36.791328,8.117571
0.470000,29.637509,37.586561,8.114620
0.480000,30.896744,38.381498,8.111605
0.490000,32.182051,39.176134,8.108527
0.500000,33.493418,39.970462,8.105387
0.510000,34.830835,40.764476,8.102183
0.520000,36.194292,41.558170,8.098917
0.530000,37.583778,42.351538,8.095588
0.540000,38.999282,43.144573,8.092197
0.550000,40.440794,43.937270,8.088743
0.560000,41.908301,44.729622,8.085227
0.570000,43.401793,45.521624,8.081649
0.580000,44.921257,46.313268,8.078009
0.590000,46.466682,47.104551,8.074307
0.600000,48.038056,47.895464,8.070544
0.610000,49.635366,48.686002,8.066718
0.620000,51.258599,49.476160,8.062832
0.630000,52.907744,50.265930,8.058884
0.640000,54.582787,51.055308,8.054875
0.650000,56.283715,51.844287,8.050804
0.660000,58.010515,52.632861,8.046673
0.670000,59.763173,53.421024,8.042482
0.680000,61.541676,54.208771,8.038229
0.690000,63.346010,54.996094,8.033916
0.700000,65.176161,55.782990,8.029543
0.710000,67.032114,56.569450,8.025110
0.720000,68.913855,57.355471,8.020617
0.730000,70.821370,58.141045,8.016064
0.740000,72.754643,58.926167,8.011452
0.750000,74.713660,59.710832,8.006780
0.760000,76.698405,60.495033,8.002048
0.770000,78.708863,61.278764,7.997258
0.780000,80.745019,62.062020,7.992408
0.790000,82.806856,62.844795,7.987500
0.800000,84.894359,63.627083,7.982533
0.810000,87.007511,64.408879,7.977508
0.820000,89.146297,65.190176,7.972424
0.830000,91.310699,65.970970,7.967282
0.840000,93.500700,66.751254,7.962083
0.850000,95.716285,67.531023,7.956825
0.860000,97.957436,68.310271,7.951511
0.870000,100.224135,69.088993,7.946138
0.880000,102.516366,69.867182,7.940709
0.890000,104.834110,70.644834,7.935223
0.900000,107.177349,71.421943,7.929679
0.910000,109.546067,72.198502,7.924080
0.920000,111.940243,72.974508,7.918423
0.930000,114.359861,73.749954,7.912711
0.940000,116.804902,74.524834,7.906943
0.950000,119.275346,75.299144,7.901118
0.960000,121.771176,76.072877,7.895239
0.970000,124.292371,76.846029,7.889303
0.980000,126.838913,77.618593,7.883313
0.990000,129.410782,78.390566,7.877268
1.000000,132.007959,79.161940,7.871168
1.010000,134.630423,79.932711,7.865013
1.020000,137.278155,80.702874,7.858804
1.030000,139.951135,81.472423,7.852541
1.040000,142.649342,82.241353,7.846224
1.050000,145.372756,83.009658,7.839853
1.060000,148.121356,83.777334,7.833428
1.070000,150.895122,84.544376,7.826951
1.080000,153.694032,85.310777,7.820420
1.090000,156.518066,86.076533,7.813837
1.100000,159.367201,86.841638,7.807201
1.110000,162.241416,87.606089,7.800512
1.120000,165.140691,88.369878,7.793772
1.130000,168.065002,89.133002,7.786979
1.140000,171.014328,89.895455,7.780135
1.150000,173.988647,90.657233,7.773239
1.160000,176.987936,91.418330,7.766292
1.170000,180.012173,92.178740,7.759294
1.180000,183.061335,92.938460,7.752246
1.190000,186.135400,93.697485,7.745147
1.200000,189.234344,94.455809,7.737997
1.210000,192.358144,95.213427,7.730798
1.220000,195.506777,95.970335,7.723548
1.230000,198.680219,96.726527,7.716250
1.240000,201.878448,97.481999,7.708901
1.250000,205.101438,98.236747,7.701504
1.260000,208.349167,98.990764,7.694058
1.270000,211.621610,99.744048,7.686563
1.280000,214.918742,100.496592,7.679021
1.290000,218.240540,101.248392,7.671429
1.300000,221.586978,101.999443,7.663791
1.310000,224.958033,102.749741,7.656104
1.320000,228.353679,103.499282,7.648370
1.330000,231.773891,104.248059,7.640589
1.340000,235.218644,104.996070,7.632762
1.350000,238.687913,105.743309,7.624887
1.360000,242.181672,106.489772,7.616967
1.370000,245.699895,107.235454,7.609000
1.380000,249.242558,107.980351,7.600987
1.390000,252.809633,108.724458,7.592929
1.400000,256.401096,109.467771,7.584826
1.410000,260.016919,110.210285,7.576678
1.420000,263.657076,110.951997,7.568485
1.430000,267.321542,111.692901,7.560247
1.440000,271.010288,112.432993,7.551965
1.450000,274.723289,113.172270,7.543640
1.460000,278.460518,113.910727,7.535270
1.470000,282.221947,114.648359,7.526857
1.480000,286.007550,115.385162,7.518401
1.490000,289.817298,116.121132,7.509903
1.500000,293.651165,116.856266,7.501361
1.510000,297.509123,117.590558,7.492777
1.520000,301.391145,118.324005,7.484151
1.530000,305.297201,119.056602,7.475483
1.540000,309.227265,119.788346,7.466774
1.550000,313.181309,120.519232,7.458024
1.560000,317.159303,121.249257,7.449232
1.570000,321.161219,121.978416,7.440400
1.580000,325.187030,122.706706,7.431527
1.590000,329.236706,123.434122,7.422614
1.600000,333.310219,124.160661,7.413661
1.610000,337.407539,124.886318,7.404669
1.620000,341.528638,125.611091,7.395637
1.630000,345.673486,126.334974,7.386566
1.640000,349.842055,127.057965,7.377457
1.650000,354.034314,127.780059,7.368309
1.660000,358.250235,128.501253,7.359122
1.670000,362.489787,129.221543,7.349898
1.680000,366.752941,129.940926,7.340636
1.690000,371.039666,130.659397,7.331337
1.700000,375.349934,131.376953,7.322001
1.710000,379.683713,132.093590,7.312628
1.720000,384.040974,132.809306,7.303218
1.730000,388.421686,133.524095,7.293772
1.740000,392.825819,134.237956,7.284290
1.750000,397.253341,134.950883,7.274772
1.760000,401.704223,135.662875,7.265219
1.770000,406.178433,136.373927,7.255631
1.780000,410.675941,137.084036,7.246008
1.790000,415.196716,137.793198,7.236351
1.800000,419.740725,138.501411,7.226659
1.810000,424.307939,139.208670,7.216933
1.820000,428.898325,139.914973,7.207174
1.830000,433.511853,140.620316,7.197381
1.840000,438.148490,141.324697,7.187555
1.850000,442.808205,142.028111,7.177696
1.860000,447.490966,142.730556,7.167805
1.870000,452.196742,143.432028,7.157881
1.880000,456.925499,144.132525,7.147926
1.890000,461.677207,144.832043,7.137939
1.900000,466.451832,145.530579,7.127920
1.910000,471.249343,146.228130,7.117870
1.920000,476.069707,146.924694,7.107790
1.930000,480.912892,147.620266,7.097679
1.940000,485.778865,148.314845,7.087538
1.950000,490.667593,149.008427,7.077366
1.960000,495.579044,149.701009,7.067165
1.970000,500.513184,150.392589,7.056935
1.980000,505.469981,151.083163,7.046676
1.990000,510.449401,151.772729,7.036387
2.000000,515.451412,152.461284,7.026071
2.010000,520.475980,153.148825,7.015726
2.020000,525.523072,153.835350,7.005353
2.030000,530.592654,154.520855,6.994952
2.040000,535.684692,155.205338,6.984524
2.050000,540.799154,155.888797,6.974069
2.060000,545.936006,156.571229,6.963588
2.070000,551.095213,157.252631,6.953079
2.080000,556.276742,157.933000,6.942545
2.090000,561.480559,158.612335,6.931985
2.100000,566.706630,159.290632,6.921398
2.110000,571.954920,159.967889,6.910787
2.120000,577.225396,160.644103,6.900151
2.130000,582.518024,161.319273,6.889489
2.140000,587.832768,161.993396,6.878803
2.150000,593.169594,162.666469,6.868093
2.160000,598.528469,163.338491,6.857360
2.170000,603.909357,164.009458,6.846602
2.180000,609.312223,164.679368,6.835821
2.190000,614.737034,165.348220,6.825017
2.200000,620.183753,166.016010,6.814190
2.210000,625.652347,166.682738,6.803341
2.220000,631.142781,167.348400,6.792469
2.230000,636.655018,168.012994,6.781576
2.240000,642.189025,168.676519,6.770661
2.250000,647.744766,169.338972,6.759724
2.260000,653.322205,170.000351,6.748767
2.270000,658.921308,170.660654,6.737789
2.280000,664.542039,171.319880,6.726790
2.290000,670.184363,171.978025,6.715771
2.300000,675.848244,172.635089,6.704731
2.310000,681.533647,173.291069,6.693673
2.320000,687.240536,173.945963,6.682595
2.330000,692.968875,174.599770,6.671497
2.340000,698.718628,175.252487,6.660381
2.350000,704.489761,175.904113,6.649246
2.360000,710.282236,176.554647,6.638093
2.370000,716.096019,177.204085,6.626922
2.380000,721.931072,177.852427,6.615734
2.390000,727.787361,178.499670,6.604527
2.400000,733.664849,179.145814,6.593304
2.410000,739.563499,179.790856,6.582064
2.420000,745.483276,180.434796,6.570807
2.430000,751.424143,181.077630,6.559533
2.440000,757.386065,181.719358,6.548244
2.450000,763.369004,182.359978,6.536939
2.460000,769.372924,182.999488,6.525618
2.470000,775.397789,183.637888,6.514282
2.480000,781.443563,184.275175,6.502931
2.490000,787.510208,184.911349,6.491565
2.500000,793.597689,185.546407,6.480185
2.510000,799.705969,186.180348,6.468791
2.520000,805.835010,186.813172,6.457382
2.530000,811.984776,187.444876,6.445960
2.540000,818.155231,188.075459,6.434525
2.550000,824.346338,188.704921,6.423076
2.560000,830.558059,189.333259,6.411615
2.570000,836.790358,189.960473,6.400141
2.580000,843.043198,190.586561,6.388655
2.590000,849.316542,191.211522,6.377156
2.600000,855.610353,191.835356,6.365646
2.610000,861.924594,192.458060,6.354125
2.620000,868.229701,192.179634,-2.841082
2.630000,874.525691,191.901765,-2.835397
2.640000,880.812582,191.624451,-2.829732
2.650000,887.090394,191.347690,-2.824089
2.660000,893.359143,191.071481,-2.818466
2.670000,899.618849,190.795820,-2.812864
2.680000,905.869528,190.520706,-2.807283
2.690000,912.111200,190.246137,-2.801722
2.700000,918.343881,189.972112,-2.796182
2.710000,924.567589,189.698627,-2.790662
2.720000,930.782343,189.425681,-2.785162
2.730000,936.988159,189.153272,-2.779682
2.740000,943.185055,188.881398,-2.774222
2.750000,949.373050,188.610058,-2.768783
2.760000,955.552159,188.339248,-2.763362
2.770000,961.722401,188.068968,-2.757962
2.780000,967.883793,187.799215,-2.752581
2.790000,974.036352,187.529987,-2.747220
2.800000,980.180095,187.261283,-2.741879
2.810000,986.315039,186.993101,-2.736556
2.820000,992.441202,186.725438,-2.731253
2.830000,998.558600,186.458293,-2.725969
2.840000,1004.667251,186.191664,-2.720704
2.850000,1010.767171,185.925549,-2.715458
2.860000,1016.858376,185.659946,-2.710231
2.870000,1022.940885,185.394854,-2.705023
2.880000,1029.014713,185.130270,-2.699834
2.890000,1035.079877,184.866193,-2.694663
2.900000,1041.136394,184.602621,-2.689510
2.910000,1047.184279,184.339552,-2.684376
2.920000,1053.223551,184.076985,-2.679261
2.930000,1059.254224,183.814917,-2.674164
2.940000,1065.276316,183.553347,-2.669084
2.950000,1071.289842,183.292272,-2.664023
2.960000,1077.294819,183.031692,-2.658981
2.970000,1083.291263,182.771605,-2.653955
2.980000,1089.279190,182.512008,-2.648948
2.990000,1095.258616,182.252900,-2.643959
3.000000,1101.229557,181.994279,-2.638987
3.010000,1107.192029,181.736144,-2.634033
3.020000,1113.146048,181.478492,-2.629096
3.030000,1119.091629,181.221323,-2.624177
3.040000,1125.028790,180.964634,-2.619275
3.050000,1130.957544,180.708424,-2.614391
3.060000,1136.877908,180.452690,-2.609524
3.070000,1142.789897,180.197432,-2.604673
3.080000,1148.693528,179.942648,-2.599840
3.090000,1154.588814,179.688336,-2.595024
3.100000,1160.475773,179.434494,-2.590225
3.110000,1166.354419,179.181120,-2.585442
3.120000,1172.224767,178.928214,-2.580676
3.130000,1178.086834,178.675773,-2.575927
3.140000,1183.940633,178.423796,-2.571194
3.150000,1189.786180,178.172281,-2.566478
3.160000,1195.623491,177.921227,-2.561779
3.170000,1201.452580,177.670632,-2.557095
3.180000,1207.273463,177.420494,-2.552428
3.190000,1213.086154,177.170812,-2.547777
3.200000,1218.890668,176.921584,-2.543142
3.210000,1224.687020,176.672808,-2.538524
3.220000,1230.475225,176.424484,-2.533921
3.230000,1236.255298,176.176609,-2.529334
3.240000,1242.027253,175.929182,-2.524763
3.250000,1247.791105,175.682202,-2.520208
3.260000,1253.546868,175.435667,-2.515668
3.270000,1259.294558,175.189574,-2.511145
3.280000,1265.034188,174.943924,-2.506636
3.290000,1270.765773,174.698714,-2.502143
3.300000,1276.489328,174.453943,-2.497666
3.310000,1282.204866,174.209609,-2.493204
3.320000,1287.912403,173.965711,-2.488757
3.330000,1293.611952,173.722247,-2.484325
3.340000,1299.303528,173.479216,-2.479909
3.350000,1304.987144,173.236616,-2.475507
3.360000,1310.662815,172.994446,-2.471121
3.370000,1316.330555,172.752705,-2.466749
3.380000,1321.990377,172.511390,-2.462392
3.390000,1327.642297,172.270501,-2.458050
3.400000,1333.286327,172.030037,-2.453723
3.410000,1338.922482,171.789994,-2.449411
3.420000,1344.550775,171.550373,-2.445113
3.430000,1350.171221,171.311172,-2.440830
3.440000,1355.783832,171.072389,-2.436561
3.450000,1361.388623,170.834023,-2.432306
3.460000,1366.985607,170.596072,-2.428066
3.470000,1372.574798,170.358536,-2.423840
3.480000,1378.156209,170.121412,-2.419629
3.490000,1383.729855,169.884700,-2.415431
3.500000,1389.295747,169.648398,-2.411248
3.510000,1394.853900,169.412504,-2.407079
3.520000,1400.404328,169.177018,-2.402923
3.530000,1405.947042,168.941937,-2.398782
3.540000,1411.482058,168.707261,-2.394654
3.550000,1417.009387,168.472988,-2.390540
3.560000,1422.529043,168.239117,-2.386440
3.570000,1428.041039,168.005646,-2.382354
3.580000,1433.545389,167.772575,-2.378281
3.590000,1439.042105,167.539901,-2.374222
3.600000,1444.531201,167.307624,-2.370176
3.610000,1450.012688,167.075741,-2.366144
3.620000,1455.486581,166.844253,-2.362125
3.630000,1460.952893,166.613158,-2.358119
3.640000,1466.411635,166.382453,-2.354127
3.650000,1471.862820,166.152139,-2.350148
3.660000,1477.306463,165.922213,-2.346182
3.670000,1482.742574,165.692674,-2.342229
3.680000,1488.171168,165.463522,-2.338289
3.690000,1493.592256,165.234755,-2.334362
3.700000,1499.005851,165.006371,-2.330448
3.710000,1504.411965,164.778369,-2.326547
3.720000,1509.810612,164.550748,-2.322659
3.730000,1515.201803,164.323508,-2.318783
3.740000,1520.585552,164.096645,-2.314920
3.750000,1525.961870,163.870161,-2.311070
3.760000,1531.330769,163.644052,-2.307233
3.770000,1536.692263,163.418318,-2.303407
3.780000,1542.046363,163.192958,-2.299595
3.790000,1547.393081,162.967970,-2.295795
3.800000,1552.732430,162.743353,-2.292007
3.810000,1558.064422,162.519106,-2.288231
3.820000,1563.389069,162.295228,-2.284468
3.830000,1568.706382,162.071718,-2.280717
3.840000,1574.016375,161.848574,-2.276979
3.850000,1579.319059,161.625796,-2.273252
3.860000,1584.614445,161.403381,-2.269537
3.870000,1589.902547,161.181329,-2.265835
3.880000,1595.183375,160.959639,-2.262144
3.890000,1600.456942,160.738309,-2.258466
3.900000,1605.723259,160.517339,-2.254799
3.910000,1610.982338,160.296727,-2.251144
3.920000,1616.234191,160.076472,-2.247501
3.930000,1621.478829,159.856573,-2.243869
3.940000,1626.716265,159.637028,-2.240249
3.950000,1631.946509,159.417837,-2.236641
3.960000,1637.169574,159.198999,-2.233044
3.970000,1642.385470,158.980512,-2.229459
3.980000,1647.594209,158.762375,-2.225886
3.990000,1652.795804,158.544588,-2.222323
4.000000,1657.990264,158.327148,-2.218773
4.010000,1663.177602,158.110055,-2.215233
4.020000,1668.357829,157.893308,-2.211705
4.030000,1673.530956,157.676906,-2.208188
4.040000,1678.696994,157.460847,-2.204682
4.050000,1683.855955,157.245130,-2.201188
4.060000,1689.007850,157.029755,-2.197704
4.070000,1694.152690,156.814721,-2.194232
4.080000,1699.290487,156.600025,-2.190770
4.090000,1704.421250,156.385668,-2.187320
4.100000,1709.544992,156.171647,-2.183880
4.110000,1714.661723,155.957963,-2.180452
4.120000,1719.771455,155.744614,-2.177034
4.130000,1724.874198,155.531598,-2.173627
4.140000,1729.969963,155.318916,-2.170231
4.150000,1735.058761,155.106565,-2.166845
4.160000,1740.140603,154.894545,-2.163470
4.170000,1745.215500,154.682855,-2.160106
4.180000,1750.283463,154.471493,-2.156752
4.190000,1755.344502,154.260459,-2.153409
4.200000,1760.398627,154.049751,-2.150076
4.210000,1765.445851,153.839370,-2.146754
4.220000,1770.486183,153.629312,-2.143442
4.230000,1775.519634,153.419578,-2.140140
4.240000,1780.546214,153.210167,-2.136849
4.250000,1785.565935,153.001078,-2.133568
4.260000,1790.578806,152.792308,-2.130297
4.270000,1795.584838,152.583859,-2.127037
4.280000,1800.584042,152.375728,-2.123787
4.290000,1805.576428,152.167914,-2.120546
4.300000,1810.562006,151.960417,-2.117316
4.310000,1815.540787,151.753236,-2.114096
4.320000,1820.512781,151.546369,-2.110886
4.330000,1825.477998,151.339816,-2.107686
4.340000,1830.436449,151.133575,-2.104495
4.350000,1835.388143,150.927646,-2.101315
4.360000,1840.333092,150.722028,-2.098144
4.370000,1845.271305,150.516720,-2.094984
4.380000,1850.202792,150.311720,-2.091832
4.390000,1855.127563,150.107028,-2.088691
4.400000,1860.045629,149.902644,-2.085559
4.410000,1864.957000,149.698565,-2.082437
4.420000,1869.861684,149.494791,-2.079325
4.430000,1874.759694,149.291321,-2.076222
4.440000,1879.651038,149.088155,-2.073129
4.450000,1884.535726,148.885290,-2.070045
4.460000,1889.413768,148.682727,-2.066971
4.470000,1894.285175,148.480464,-2.063906
4.480000,1899.149955,148.278501,-2.060850
4.490000,1904.008119,148.076836,-2.057804
4.500000,1908.859677,147.875469,-2.054767
4.510000,1913.704637,147.674399,-2.051739
4.520000,1918.543011,147.473624,-2.048721
4.530000,1923.374807,147.273144,-2.045711
4.540000,1928.200036,147.072959,-2.042711
4.550000,1933.018706,146.873066,-2.039720
4.560000,1937.830828,146.673466,-2.036738
4.570000,1942.636410,146.474157,-2.033765
4.580000,1947.435464,146.275138,-2.030801
4.590000,1952.227997,146.076409,-2.027847
4.600000,1957.014020,145.877969,-2.024901
4.610000,1961.793541,145.679817,-2.021964
4.620000,1966.566571,145.481951,-2.019035
4.630000,1971.333119,145.284372,-2.016116
4.640000,1976.093194,145.087078,-2.013206
4.650000,1980.846805,144.890068,-2.010304
4.660000,1985.593962,144.693341,-2.007411
4.670000,1990.334674,144.496898,-2.004527
4.680000,1995.068951,144.300736,-2.001651
4.690000,1999.796800,144.104855,-1.998784
4.700000,2004.518233,143.909255,-1.995926
4.710000,2009.233257,143.713933,-1.993076
4.720000,2013.941882,143.518890,-1.990235
4.730000,2018.644117,143.324125,-1.987402
4.740000,2023.339972,143.129636,-1.984578
4.750000,2028.029454,142.935423,-1.981762
4.760000,2032.712574,142.741486,-1.978954
4.770000,2037.389340,142.547823,-1.976155
4.780000,2042.059761,142.354433,-1.973365
4.790000,2046.723847,142.161316,-1.970582
4.800000,2051.381605,141.968471,-1.967808
4.810000,2056.033045,141.775897,-1.965042
4.820000,2060.678176,141.583593,-1.962285
4.830000,2065.317007,141.391558,-1.959535
4.840000,2069.949546,141.199793,-1.956794
4.850000,2074.575803,141.008295,-1.954061
4.860000,2079.195786,140.817064,-1.951336
4.870000,2083.809503,140.626099,-1.948619
4.880000,2088.416964,140.435400,-1.945910
4.890000,2093.018177,140.244966,-1.943209
4.900000,2097.613150,140.054795,-1.940516
4.910000,2102.201893,139.864888,-1.937831
4.920000,2106.784415,139.675243,-1.935153
4.930000,2111.360723,139.485859,-1.932484
